r,chord,theta
0.15,0.13,32.76
0.2,0.149,37.19
0.25,0.173,33.54
0.3,0.189,29.25
0.35,0.197,25.64
0.4,0.201,22.54
0.45,0.2,20.27
0.5,0.194,18.46
0.55,0.186,17.05
0.6,0.174,15.97
0.65,0.16,14.87
0.7,0.145,14.09
0.75,0.128,13.39
0.8,0.112,12.84
0.85,0.096,12.25
0.9,0.081,11.37
0.95,0.061,10.19
0.99,0.041,8.99